Subject: 
Session: 2
Group: 
Time: 19.969558238983154
# Consecuences: 0
Distance: 1778.463cm
Velocity: 89.059cm/seg
Mean Aceleration: 0.917m/seg

Frame,Time,X,Y,Distance,Events,Aceleration
0,0.0,32.971,71.739,0.0,0.0;0.0,0.0
1,0.719,39.855,72.464,6.922,0.0;0.0,0.536
2,0.848,98.913,22.101,77.616,0.0;0.0,6.587
3,0.966,39.13,72.101,77.936,0.0;0.0,7.377
4,1.072,42.391,71.377,3.34,0.0;0.0,0.365
5,1.163,46.014,72.464,3.783,0.0;0.0,0.441
6,1.249,47.826,74.275,2.562,0.0;0.0,0.329
7,1.327,44.203,71.739,4.423,0.0;0.0,0.453
8,1.425,41.667,68.116,4.423,0.0;0.0,0.402
9,1.535,40.217,56.159,12.044,0.0;0.0,1.284
10,1.628,40.58,51.449,4.724,0.0;0.0,0.532
11,1.717,42.754,45.652,6.191,0.0;0.0,0.637
12,1.814,42.754,46.014,0.362,0.0;0.0,0.043
13,1.899,42.754,46.014,0.0,0.0;0.0,0.0
14,1.996,42.754,34.783,11.232,0.0;0.0,1.275
15,2.084,41.667,29.348,5.542,0.0;0.0,0.637
16,2.171,40.942,31.159,1.951,0.0;0.0,0.226
17,2.258,36.232,38.768,8.949,0.0;0.0,0.953
18,2.352,30.072,40.217,6.328,0.0;0.0,0.682
19,2.444,26.449,40.942,3.695,0.0;0.0,0.38
20,2.542,34.058,42.754,7.821,0.0;0.0,0.859
21,2.633,42.754,44.565,8.882,0.0;0.0,0.977
22,2.724,54.71,46.377,12.093,0.0;0.0,1.262
23,2.819,52.899,46.014,1.847,0.0;0.0,0.199
24,2.912,46.377,45.652,6.532,0.0;0.0,0.658
25,3.012,29.71,45.29,16.671,0.0;0.0,2.048
26,3.093,26.449,46.014,3.34,0.0;0.0,0.37
27,3.183,28.261,47.101,2.113,0.0;0.0,0.232
28,3.275,44.565,48.551,16.369,0.0;0.0,1.915
29,3.36,51.087,48.913,6.532,0.0;0.0,0.695
30,3.454,49.275,49.275,1.847,0.0;0.0,0.187
31,3.553,41.667,50.362,7.686,0.0;0.0,0.926
32,3.636,33.696,51.449,8.045,0.0;0.0,0.817
33,3.734,31.884,53.623,2.83,0.0;0.0,0.334
34,3.819,39.493,54.348,7.643,0.0;0.0,0.721
35,3.925,51.087,54.348,11.594,0.0;0.0,1.196
36,4.022,48.913,54.348,2.174,0.0;0.0,0.275
37,4.101,44.565,55.072,4.408,0.0;0.0,0.505
38,4.188,36.594,55.797,8.004,0.0;0.0,0.821
39,4.286,36.594,55.797,0.0,0.0;0.0,0.0
40,4.367,42.029,55.797,5.435,0.0;0.0,0.62
41,4.455,54.71,55.435,12.686,0.0;0.0,1.339
42,4.549,52.174,55.435,2.536,0.0;0.0,0.254
43,4.649,40.217,56.522,12.006,0.0;0.0,1.392
44,4.735,38.043,56.884,2.204,0.0;0.0,0.236
45,4.829,39.493,57.246,1.494,0.0;0.0,0.155
46,4.925,43.841,56.884,4.363,0.0;0.0,0.529
47,5.007,46.739,57.971,3.096,0.0;0.0,0.322
48,5.103,48.551,58.696,1.951,0.0;0.0,0.201
49,5.201,44.565,62.319,5.386,0.0;0.0,0.682
50,5.28,42.754,63.406,2.113,0.0;0.0,0.245
51,5.366,43.478,63.768,0.81,0.0;0.0,0.089
52,5.457,47.101,64.13,3.641,0.0;0.0,0.386
53,5.552,46.739,64.13,0.362,0.0;0.0,0.037
54,5.65,46.739,64.13,0.0,0.0;0.0,0.0
55,5.756,46.377,63.768,0.512,0.0;0.0,0.061
56,5.84,46.739,63.768,0.362,0.0;0.0,0.038
57,5.934,47.101,60.145,3.641,0.0;0.0,0.379
58,6.031,46.377,57.609,2.638,0.0;0.0,0.376
59,6.101,46.014,54.71,2.921,0.0;0.0,0.318
60,6.193,46.377,55.797,1.146,0.0;0.0,0.136
61,6.277,47.101,59.058,3.34,0.0;0.0,0.371
62,6.367,48.551,59.058,1.449,0.0;0.0,0.142
63,6.469,47.464,59.058,1.087,0.0;0.0,0.135
64,6.549,47.101,58.696,0.512,0.0;0.0,0.056
65,6.641,47.826,58.696,0.725,0.0;0.0,0.077
66,6.734,48.551,58.696,0.725,0.0;0.0,0.089
67,6.816,49.275,58.696,0.725,0.0;0.0,0.063
68,6.93,48.913,59.058,0.512,0.0;0.0,0.048
69,7.038,36.957,52.899,13.45,0.0;0.0,1.548
70,7.125,51.449,61.957,17.091,0.0;0.0,2.126
71,7.205,51.087,61.594,0.512,0.0;0.0,0.058
72,7.293,51.449,61.957,0.512,0.0;0.0,0.065
73,7.372,36.232,53.261,17.527,0.0;0.0,0.75
74,7.606,33.696,53.623,2.562,0.0;0.0,0.104
75,7.852,47.101,57.971,14.093,0.0;0.0,0.876
76,8.013,47.101,58.333,0.362,0.0;0.0,0.032
77,8.127,46.377,59.058,1.025,0.0;0.0,0.08
78,8.255,47.826,60.145,1.812,0.0;0.0,0.118
79,8.409,46.377,59.058,1.812,0.0;0.0,0.209
80,8.496,44.928,58.696,1.494,0.0;0.0,0.173
81,8.582,46.739,59.783,2.113,0.0;0.0,0.252
82,8.666,46.014,59.42,0.81,0.0;0.0,0.086
83,8.76,46.739,58.696,1.025,0.0;0.0,0.087
84,8.877,48.551,55.435,3.73,0.0;0.0,0.342
85,8.987,49.275,57.971,2.638,0.0;0.0,0.241
86,9.096,49.275,58.333,0.362,0.0;0.0,0.038
87,9.191,48.551,55.435,2.988,0.0;0.0,0.318
88,9.285,47.826,52.899,2.638,0.0;0.0,0.268
89,9.383,49.275,51.812,1.812,0.0;0.0,0.162
90,9.495,49.638,52.174,0.512,0.0;0.0,0.058
91,9.584,50.362,52.174,0.725,0.0;0.0,0.096
92,9.66,51.812,50.725,2.05,0.0;0.0,0.183
93,9.771,51.812,50.0,0.725,0.0;0.0,0.053
94,9.908,51.812,48.551,1.449,0.0;0.0,0.144
95,10.008,52.536,47.101,1.62,0.0;0.0,0.171
96,10.103,52.899,45.652,1.494,0.0;0.0,0.138
97,10.211,52.899,42.754,2.899,0.0;0.0,0.269
98,10.319,53.261,42.029,0.81,0.0;0.0,0.086
99,10.413,52.536,44.203,2.292,0.0;0.0,0.171
100,10.547,51.449,46.377,2.431,0.0;0.0,0.185
101,10.678,49.638,50.0,4.051,0.0;0.0,0.479
102,10.762,49.275,51.812,1.847,0.0;0.0,0.192
103,10.859,44.203,40.942,11.995,0.0;0.0,1.442
104,10.942,40.217,38.768,4.54,0.0;0.0,0.556
105,11.024,37.681,34.42,5.033,0.0;0.0,0.431
106,11.141,24.638,42.754,15.478,0.0;0.0,1.518
107,11.242,42.391,57.609,23.149,0.0;0.0,2.487
108,11.336,37.681,57.971,4.724,0.0;0.0,0.404
109,11.453,45.652,46.377,14.07,0.0;0.0,1.354
110,11.557,46.014,54.71,8.341,0.0;0.0,0.701
111,11.676,91.667,68.116,47.58,0.0;0.0,4.313
112,11.786,30.435,60.145,61.749,0.0;0.0,5.668
113,11.895,0.725,73.188,32.447,0.0;0.0,3.016
114,12.002,32.246,72.101,31.54,0.0;0.0,2.801
115,12.115,89.855,68.841,57.701,0.0;0.0,5.372
116,12.222,89.855,68.841,0.0,0.0;0.0,0.0
117,12.331,56.159,61.957,34.392,0.0;0.0,3.53
118,12.428,66.667,42.029,22.528,0.0;0.0,2.06
119,12.538,66.667,42.029,0.0,0.0;0.0,0.0
120,12.659,34.058,38.768,32.771,0.0;0.0,2.965
121,12.769,38.043,27.174,12.26,0.0;0.0,1.105
122,12.88,35.507,1.812,25.489,0.0;0.0,2.666
123,12.976,36.957,6.522,4.928,0.0;0.0,0.478
124,13.079,43.841,37.681,31.911,0.0;0.0,3.513
125,13.17,45.652,40.942,3.73,0.0;0.0,0.305
126,13.292,47.826,45.652,5.188,0.0;0.0,0.407
127,13.419,43.841,52.536,7.955,0.0;0.0,0.646
128,13.542,44.203,53.623,1.146,0.0;0.0,0.142
129,13.623,44.565,50.362,3.281,0.0;0.0,0.301
130,13.732,42.754,41.667,8.882,0.0;0.0,0.915
131,13.829,42.029,35.507,6.202,0.0;0.0,0.731
132,13.914,43.116,28.986,6.612,0.0;0.0,0.951
133,13.983,44.565,25.362,3.902,0.0;0.0,0.34
134,14.098,40.58,20.652,6.17,0.0;0.0,0.723
135,14.184,36.232,14.493,7.539,0.0;0.0,0.792
136,14.279,29.71,9.42,8.262,0.0;0.0,0.875
137,14.373,35.145,10.507,5.542,0.0;0.0,0.691
138,14.454,35.87,13.768,3.34,0.0;0.0,0.34
139,14.552,35.87,15.942,2.174,0.0;0.0,0.181
140,14.672,36.232,27.174,11.238,0.0;0.0,1.131
141,14.771,35.507,31.884,4.766,0.0;0.0,0.504
142,14.866,33.333,40.942,9.315,0.0;0.0,0.843
143,14.976,30.797,52.174,11.515,0.0;0.0,0.93
144,15.1,22.826,71.377,20.792,0.0;0.0,1.794
145,15.216,18.841,71.377,3.986,0.0;0.0,0.332
146,15.336,17.391,68.116,3.568,0.0;0.0,0.44
147,15.417,16.667,68.116,0.725,0.0;0.0,0.063
148,15.532,16.304,68.116,0.362,0.0;0.0,0.054
149,15.6,14.493,67.029,2.113,0.0;0.0,0.233
150,15.69,2.899,69.565,11.868,0.0;0.0,1.016
151,15.807,9.783,57.971,13.484,0.0;0.0,1.239
152,15.916,8.696,56.159,2.113,0.0;0.0,0.204
153,16.019,9.42,50.0,6.202,0.0;0.0,0.638
154,16.116,10.507,44.928,5.188,0.0;0.0,0.57
155,16.207,10.145,36.232,8.703,0.0;0.0,0.705
156,16.331,9.783,34.058,2.204,0.0;0.0,0.179
157,16.454,13.768,37.681,5.386,0.0;0.0,0.584
158,16.546,27.174,39.493,13.528,0.0;0.0,1.253
159,16.654,42.391,38.043,15.286,0.0;0.0,1.306
160,16.771,50.725,37.319,8.365,0.0;0.0,0.755
161,16.882,69.928,39.13,19.288,0.0;0.0,1.731
162,16.994,83.696,39.493,13.773,0.0;0.0,1.189
163,17.109,85.87,39.493,2.174,0.0;0.0,0.176
164,17.233,77.174,40.58,8.763,0.0;0.0,0.889
165,17.331,47.101,54.71,33.227,0.0;0.0,4.19
166,17.411,36.594,37.319,20.319,0.0;0.0,2.427
167,17.494,21.014,48.551,19.206,0.0;0.0,2.416
168,17.574,13.043,49.638,8.045,0.0;0.0,0.746
169,17.682,7.246,51.812,6.191,0.0;0.0,0.541
170,17.796,1.812,54.348,5.997,0.0;0.0,0.577
171,17.9,2.536,54.71,0.81,0.0;0.0,0.072
172,18.013,15.942,51.449,13.797,0.0;0.0,1.346
173,18.116,29.71,46.739,14.552,0.0;0.0,1.515
174,18.212,51.812,38.768,23.495,0.0;0.0,1.869
175,18.338,59.783,35.145,8.756,0.0;0.0,0.674
176,18.467,64.13,33.333,4.71,0.0;0.0,0.61
177,18.545,63.406,28.986,4.408,0.0;0.0,0.462
178,18.64,61.594,18.478,10.662,0.0;0.0,1.078
179,18.739,67.029,25.0,8.489,0.0;0.0,1.068
180,18.818,60.145,37.681,14.429,0.0;0.0,1.388
181,18.922,48.188,43.478,13.288,0.0;0.0,1.377
182,19.019,39.493,30.072,15.979,0.0;0.0,1.805
183,19.107,49.275,36.232,11.56,0.0;0.0,1.272
184,19.198,55.797,57.246,22.003,0.0;0.0,2.38
185,19.291,40.217,64.855,17.338,0.0;0.0,1.956
186,19.379,17.029,67.391,23.327,0.0;0.0,3.091
187,19.455,47.101,49.638,34.922,0.0;0.0,3.132
188,19.566,69.203,48.551,22.128,0.0;0.0,1.948
189,19.68,44.928,71.739,33.571,0.0;0.0,3.576
190,19.774,31.884,71.739,13.043,0.0;0.0,1.223
191,19.881,41.667,55.072,19.326,0.0;0.0,2.171
192,19.97,56.884,46.377,17.527,0.0;0.0,1.496
